# Well Angle,Fracture 1,Fracture 2,Fracture 3,Pressure Drop
1.003354252449484146e-01,3.464006043397166934e+01,3.274032971889158716e+01,3.261960984713675060e+01,1.583712151640627042e+02
2.006706966436306028e-01,3.405976101934983546e+01,3.272530963475627885e+01,3.321492934589389279e+01,1.587844518815135757e+02
3.010056603245632179e-01,3.348700772567213590e+01,3.269548688047880347e+01,3.381750539384906773e+01,1.591462650502808742e+02
4.013401625788883820e-01,3.292143875766056027e+01,3.265083839446043612e+01,3.442772284787901782e+01,1.594569316078303700e+02
5.006912612564722309e-01,3.236814305832704974e+01,3.259197733129655461e+01,3.503987961037638854e+01,1.597143728466885477e+02
6.005615116529761099e-01,3.181836759459585906e+01,3.251805571243027515e+01,3.566357669297386934e+01,1.599229928896246520e+02
7.004308497143204582e-01,3.127469511482480868e+01,3.242926407043707826e+01,3.629604081473812016e+01,1.600814177704801580e+02
8.002991237428552784e-01,3.073680317522019934e+01,3.232550424683068258e+01,3.693769257794910743e+01,1.601896966041313419e+02
9.001661820506275946e-01,3.020437626119363372e+01,3.220665879194432790e+01,3.758896494686204903e+01,1.602478234086531188e+02
1.000031872960765789e+00,2.967710517351801514e+01,3.207259066847652207e+01,3.825030415800546280e+01,1.602557371702195610e+02
1.100961253905949455e+00,2.914913904123000066e+01,3.192146526256674122e+01,3.892939569620325813e+01,1.602125974816724465e+02
1.200823736403118236e+00,2.863132130430929934e+01,3.175629351819150870e+01,3.961238517749918486e+01,1.601191416742977083e+02
1.300418102405262344e+00,2.811912481800085573e+01,3.157586797289540925e+01,4.030500720910374213e+01,1.599754076129470377e+02
1.400809364927726230e+00,2.760681377371576417e+01,3.137791128069092395e+01,4.101527494559331899e+01,1.597791657947869055e+02
1.500665914816155189e+00,2.710091144367619620e+01,3.116474216638500749e+01,4.173434638993879986e+01,1.595324727093894523e+02
1.600520185534808570e+00,2.659840647952314541e+01,3.093508863807411657e+01,4.246650488240273091e+01,1.592340251661691752e+02
1.700105757316529465e+00,2.610034594162600285e+01,3.068934228056311397e+01,4.321031177781087962e+01,1.588843711872510482e+02
1.800221283243522041e+00,2.560246760639146046e+01,3.042515149499977412e+01,4.397238089860876897e+01,1.584799793690285696e+02
1.899950655587020032e+00,2.510905572936492547e+01,3.014455765465558557e+01,4.474638661597950318e+01,1.580238546406550313e+02
1.999930083045492024e+00,2.461667978418828540e+01,2.984543963830447311e+01,4.553788057750725216e+01,1.575125502068063383e+02
2.099906465473766470e+00,2.412631716483191369e+01,2.952809384649874858e+01,4.634558898866933419e+01,1.569464491259189742e+02
2.199879650817317511e+00,2.363769058874187223e+01,2.919209847297958405e+01,4.717021093827854372e+01,1.563247797502735921e+02
2.299849487050810826e+00,2.315052215617556186e+01,2.883700159978902633e+01,4.801247624403541181e+01,1.556467028762655502e+02
2.399815822179489189e+00,2.266453282809330716e+01,2.846231975145881421e+01,4.887314742044787863e+01,1.549113097187620838e+02
2.499778504240557808e+00,2.217944189694599899e+01,2.806753632652496222e+01,4.975302177652904589e+01,1.541176197095279861e+02
2.599737381304565442e+00,2.169496644854808665e+01,2.765209989759724962e+01,5.065293365385466018e+01,1.532645781138897974e+02
2.699692301476790846e+00,2.121082081320463075e+01,2.721542237035492562e+01,5.157375681644044363e+01,1.523510534594309718e+02
2.799643112898621666e+00,2.072671600423403149e+01,2.675687699091233895e+01,5.251640700485362601e+01,1.513758347702435003e+02
2.899589663748938673e+00,2.024235914199941178e+01,2.627579618998257516e+01,5.348184466801802017e+01,1.503376286000290634e+02
2.999531802245492429e+00,1.975745286152412916e+01,2.577146925116681686e+01,5.447107788730905042e+01,1.492350558571974091e+02
3.099469376646286189e+00,1.927169470173576471e+01,2.524313978948921644e+01,5.548516550877502596e+01,1.480666484150282258e+02
3.199402235250955240e+00,1.878477647434203135e+01,2.469000302498428212e+01,5.652522050067369008e+01,1.468308455000572792e+02
3.299330226402140021e+00,1.829638361030996663e+01,2.411120283471034753e+01,5.759241355497969295e+01,1.455259898519694843e+02
3.399253198486867245e+00,1.780619448188395637e+01,2.350582856499393714e+01,5.868797695312210294e+01,1.441503236487200184e+02
3.499170999937923909e+00,1.731387969805436455e+01,2.287291158400063651e+01,5.981320871794500249e+01,1.427019841911400135e+02
3.599083479235231753e+00,1.681910137136737404e+01,2.221142155286251096e+01,6.096947707577010789e+01,1.411789993421290319e+02
3.698990484907222154e+00,1.632151235396260702e+01,2.152026239155267007e+01,6.215822525448471936e+01,1.395792827166857535e+02
3.798891865532205259e+00,1.582075544073470930e+01,2.079826791347896631e+01,6.338097664578633328e+01,1.379006286205792833e+02
3.898787469739746658e+00,1.531646253754926690e+01,2.004419710034706270e+01,6.463934036210366685e+01,1.361407067374416044e+02
3.998677146212032518e+00,1.480825379250521401e+01,1.925672898620914708e+01,6.593501722128564779e+01,1.342970565666509231e+02
4.098560743685243146e+00,1.429573668833668521e+01,1.843445711675206411e+01,6.726980619491125424e+01,1.323670816176066296e+02
4.198438110950915458e+00,1.377850509419357117e+01,1.757588354677125153e+01,6.864561135903517197e+01,1.303480433700613048e+02
4.298309096857314771e+00,1.325613827524693988e+01,1.667941233541092672e+01,7.006444938934212985e+01,1.282370550152350575e+02
4.398173550310795044e+00,1.272819985884650329e+01,1.574334249511995765e+01,7.152845764603354439e+01,1.260310749986401504e+02
4.498031320277168454e+00,1.219423675632683235e+01,1.476586034635362843e+01,7.303990289731953567e+01,1.237269003932392764e+02
4.597882255783063421e+00,1.165377804004559259e+01,1.374503122585637804e+01,7.460119073409802581e+01,1.213211601408406750e+02
4.697726205917286180e+00,1.110633377585512704e+01,1.267879049186960749e+01,7.621487573227526013e+01,1.188103082110514350e+02
4.797563019832182363e+00,1.055139381199975901e+01,1.156493376484300661e+01,7.788367242315725036e+01,1.161906167408731676e+02
4.897392546744996800e+00,9.988426526421863016e+00,1.040110633719526056e+01,7.961046713638286576e+01,1.134581692346361166e+02
4.997214635939223548e+00,9.416877535698995771e+00,9.184791680400813618e+00,8.139833078390019239e+01,1.106088539241341380e+02
5.097029136765969248e+00,8.836168370370273806e+00,7.913298972220975003e+00,8.325053265740875474e+01,1.076383574128287393e+02
5.196835898645304042e+00,8.245695123303594443e+00,6.583749561315005216e+00,8.517055531538140656e+01,1.045421587569779120e+02
5.296634771067609826e+00,7.644827080078878012e+00,5.193062280856533874e+00,8.716211063906459344e+01,1.013155241711392307e+02
5.396425603594937392e+00,7.838039474810283735e+00,5.874840989913031386e+00,8.628711953527668754e+01,1.030437231338073616e+02
5.496208245862351127e+00,8.291124569874668282e+00,7.253906134296346231e+00,8.445496929582898815e+01,1.064679917661120214e+02
5.595982547579276378e+00,8.718858318419115960e+00,8.578957905975888920e+00,8.270218377560499334e+01,1.097970722257194041e+02
5.695748358530851263e+00,9.122798890541760741e+00,9.853289956381100723e+00,8.102391115307713676e+01,1.130349164736401235e+02
5.795505528579258936e+00,9.504394461146448592e+00,1.107994231971668597e+01,7.941566321913686011e+01,1.161853110809144738e+02
5.895253907665082949e+00,9.864991591527287440e+00,1.226172385634022355e+01,7.787328455213248901e+01,1.192518777731186930e+02
5.994993345808638630e+00,1.020584299457147992e+01,1.340123255240496469e+01,7.639292445302355361e+01,1.222380756915967055e+02
6.094723693111312457e+00,1.052811471398212717e+01,1.450087388237912478e+01,7.497101140363874094e+01,1.251472049382361149e+02
6.194444799756905873e+00,1.083289275087395964e+01,1.556287742337614333e+01,7.360422982574989703e+01,1.279824110575634677e+02
6.294156516012963110e+00,1.112118917248814220e+01,1.658931189326964528e+01,7.228949893424221784e+01,1.307466901806615169e+02
6.393858692232106122e+00,1.139394773803235950e+01,1.758209876855661591e+01,7.102395349341102815e+01,1.334428946128473967e+02
6.493551178853365968e+00,1.165204907610453233e+01,1.854302462300262277e+01,6.980492630089283068e+01,1.360737386934948745e+02
6.593233826403512410e+00,1.189631544705166810e+01,1.947375231431136200e+01,6.862993223863696812e+01,1.386418047939939413e+02
6.692906485498384406e+00,1.212751512213693594e+01,2.037583113341575114e+01,6.749665374444731469e+01,1.411495493500979705e+02
6.792569006844207280e+00,1.234636640967788956e+01,2.125070601945513005e+01,6.640292757086697861e+01,1.435993088492232346e+02
6.892221241238922325e+00,1.255354135648716252e+01,2.209972593304471999e+01,6.534673271046811749e+01,1.459933057128428402e+02
6.991863039573508409e+00,1.274966915106074694e+01,2.292415147097911898e+01,6.432617937796013052e+01,1.483336540296354258e+02
7.091494252833295597e+00,1.293533925308346966e+01,2.372516179698309102e+01,6.333949894993343577e+01,1.506223651075476653e+02
7.191114732099286755e+00,1.311110427198819650e+01,2.450386095545323784e+01,6.238503477255856922e+01,1.528613528226792084e+02
7.290724328549469391e+00,1.327748261554237352e+01,2.526128362824162110e+01,6.146123375621600360e+01,1.550524387507508095e+02
7.390322893460136378e+00,1.343496092776224593e+01,2.599840038835831280e+01,6.056663868387944660e+01,1.571973570729153948e+02
7.489910278207176475e+00,1.358399633387719874e+01,2.671612249893719948e+01,5.969988116718559468e+01,1.592977592524571833e+02
7.589486334267411038e+00,1.372501850859196004e+01,2.741530630085710030e+01,5.885967519055094499e+01,1.613552184825252311e+02
7.689050913219872108e+00,1.385843158252381180e+01,2.809675722798081665e+01,5.804481118949536977e+01,1.633712339078115861e+02
7.788603866747125792e+00,1.398461590042150071e+01,2.876123348501484145e+01,5.725415061456364896e+01,1.653472346251833756e+02
7.888145046636561020e+00,1.410392964360270618e+01,2.940944941944979618e+01,5.648662093694749586e+01,1.672845834697298812e+02
7.987674304781701373e+00,1.421671032796982459e+01,3.004207861587471129e+01,5.574121105615545702e+01,1.691845805938015985e+02
8.087191493183485846e+00,1.432327618797656399e+01,3.065975673812887337e+01,5.501696707389456265e+01,1.710484668473033025e+02
8.186696463951571801e+00,1.442392745601423698e+01,3.126308414221821153e+01,5.431298840176754794e+01,1.728774269679287272e+02
8.286189069305631705e+00,1.451894754585886282e+01,3.185262828066158747e+01,5.362842417347955148e+01,1.746725925903122629e+02
8.385669161576629449e+00,1.460860414806738916e+01,3.242892591689941639e+01,5.296246993503319800e+01,1.764350450830487205e+02
8.485136593208121525e+00,1.469315024452218488e+01,3.299248516658445851e+01,5.231436458889334773e+01,1.781658182225204996e+02
8.584591216757525345e+00,1.477282504869636170e+01,3.354378738094474244e+01,5.168338757035891007e+01,1.798659007122971332e+02
8.684032884897414206e+00,1.484785487764099798e+01,3.408328888594927264e+01,5.106885623640974359e+01,1.815362385566147907e+02
8.783461450416796268e+00,1.491845396117603073e+01,3.461142258970097174e+01,5.047012344912299397e+01,1.831777372961933281e+02
8.882876766222377540e+00,1.498482519329234819e+01,3.512859946930290533e+01,4.988657533740475003e+01,1.847912641143070118e+02
8.982278685339849744e+00,1.504716083034289476e+01,3.563520994739073444e+01,4.931762922226637613e+01,1.863776498206585472e+02
9.081667060915158629e+00,1.510564314020805909e+01,3.613162516757522269e+01,4.876273169221671822e+01,1.879376907203347571e+02
9.181041746215761634e+00,1.516044500626462010e+01,3.661819817718494363e+01,4.822135681655043982e+01,1.894721503746455937e+02
9.280402594631913971e+00,1.521173048966151242e+01,3.709526502493141464e+01,4.769300448540707293e+01,1.909817612603961265e+02
9.379749459677913848e+00,1.525965535311250854e+01,3.756314578042604779e+01,4.717719886646143834e+01,1.924672263337064066e+02
9.479082194993370791e+00,1.530436754914449082e+01,3.802214548185609289e+01,4.667348696899941274e+01,1.939292205042067678e+02
9.578400654344461529e+00,1.534600767549646427e+01,3.847255501756094986e+01,4.618143730694259119e+01,1.953683920250662425e+02
9.677704691625187650e+00,1.538470940014080846e+01,3.891465194674518102e+01,4.570063865311399809e+01,1.967853638039962902e+02
9.776994160858622607e+00,1.542059985819483536e+01,3.934870126410132229e+01,4.523069887770385122e+01,1.981807346400718757e+02
9.876268916198162273e+00,1.545380002280448650e+01,3.977495611270374809e+01,4.477124386449175830e+01,1.995550803909138722e+02
9.975528811928775497e+00,1.548442505191448859e+01,4.019365844915490982e+01,4.432191649893060514e+01,2.009089550745005113e+02
1.007477370246824044e+01,1.551258461268250066e+01,4.060503966462828629e+01,4.388237572268921838e+01,2.022428919095856372e+02
1.017400344236839516e+01,1.553838318515643202e+01,4.100932116514000114e+01,4.345229564970357927e+01,2.035574042984888479e+02
1.027321788631636146e+01,1.556192034670225688e+01,4.140671491410283522e+01,4.303136473919491323e+01,2.048529867557776356e+02
1.037241688913579019e+01,1.558329103855480824e+01,4.179742393996099281e+01,4.261928502148420961e+01,2.061301157861021522e+02
1.047160030578808509e+01,1.560258581575464731e+01,4.218164281147289785e+01,4.221577137277245839e+01,2.073892507142826389e+02
1.057076799137364453e+01,1.561989108163544060e+01,4.255955808299867016e+01,4.182055083536588569e+01,2.086308344705326476e+02
1.066991980113306226e+01,1.563528930793775729e+01,4.293134871195704250e+01,4.143336198010518956e+01,2.098552943335057535e+02
1.076905559044837979e+01,1.564885924154018682e+01,4.329718645044313519e+01,4.105395430801667800e+01,2.110630426337048675e+02
1.086817521484427651e+01,1.566067609872546562e+01,4.365723621283818545e+01,4.068208768843636136e+01,2.122544774196126696e+02
1.096727852998931141e+01,1.567081174782759767e+01,4.401165642109802434e+01,4.031753183107439042e+01,2.134299830887613041e+02
1.106636539169711675e+01,1.567933488104367790e+01,4.436059932927432925e+01,3.996006578968198397e+01,2.145899309858053527e+02
1.116543565592761844e+01,1.568631117613573345e+01,4.470421132870136205e+01,3.960947749516290628e+01,2.157346799695575328e+02
1.126448917878823330e+01,1.569180344869255350e+01,4.504263323517114515e+01,3.926556331613630135e+01,2.168645769507814407e+02
1.136352581653508942e+01,1.569587179557435341e+01,4.537600055931695664e+01,3.892812764510868817e+01,2.179799574024625883e+02
1.146254542557419498e+01,1.569857373011561918e+01,4.570444376133519171e+01,3.859698250854918200e+01,2.190811458441398258e+02
1.156154786246267641e+01,1.569996430962129175e+01,4.602808849108689060e+01,3.827194719929182298e+01,2.201684563018024789e+02
1.166053298390993120e+01,1.570009625565176314e+01,4.634705581454553425e+01,3.795284792980270794e+01,2.212421927447355756e+02
1.175950064677884832e+01,1.569902006755758350e+01,4.666146242748471451e+01,3.763951750495770199e+01,2.223026495006413654e+02
1.185845070808697876e+01,1.569678412969151893e+01,4.697142085723348259e+01,3.733179501307500203e+01,2.233501116502739876e+02
1.195738302500772221e+01,1.569343481269584117e+01,4.727703965326744395e+01,3.702952553403670777e+01,2.243848554027046873e+02
1.205629745487150828e+01,1.568901656923464571e+01,4.757842356734728639e+01,3.673255986341806079e+01,2.254071484523386175e+02
1.215519385516697248e+01,1.568357202451506538e+01,4.787567372386729403e+01,3.644075425161764059e+01,2.264172503186956646e+02
1.225407208354212685e+01,1.567714206191878290e+01,4.816888778102594415e+01,3.615397015705528361e+01,2.274154126698687435e+02
1.235293199780553763e+01,1.566976590404154734e+01,4.845816008339125602e+01,3.587207401256719663e+01,2.284018796306086188e+02
1.245177345592747642e+01,1.566148118941879019e+01,4.874358180639097071e+01,3.559493700419023554e+01,2.293768880758385933e+02
1.255059631604109782e+01,1.565232404519828435e+01,4.902524109322069990e+01,3.532243486158100865e+01,2.303406679104004127e+02
1.264940043644359058e+01,1.564232915599970042e+01,4.930322318463203146e+01,3.505444765936826457e+01,2.312934423357808100e+02
1.274818567559733395e+01,1.563152982918910361e+01,4.957761054202715201e+01,3.479085962878373550e+01,2.322354281044979700e+02
1.284695189213105238e+01,1.561995805677830162e+01,4.984848296426007863e+01,3.453155897896162685e+01,2.331668357628277590e+02
1.294569894484095762e+01,1.560764457414665607e+01,5.011591769851764155e+01,3.427643772733570415e+01,2.340878698824636501e+02
1.304442669269190347e+01,1.559461891576932580e+01,5.037998954562718978e+01,3.402539153860348620e+01,2.349987292817132527e+02
1.314313499481850833e+01,1.558090946812546740e+01,5.064077096011515522e+01,3.377831957175938271e+01,2.358996072367561396e+02
1.324182371052632057e+01,1.556654351994612107e+01,5.089833214532205830e+01,3.353512433473182597e+01,2.367906916834924687e+02
1.334049269929292691e+01,1.555154730995429446e+01,5.115274114385391613e+01,3.329571154619178941e+01,2.376721654104731556e+02
1.343914182076909114e+01,1.553594607223803870e+01,5.140406392363890120e+01,3.305999000412306543e+01,2.385442062433438934e+02
1.353777093477988558e+01,1.551976407938953351e+01,5.165236445983409652e+01,3.282787146077636464e+01,2.394069872212597545e+02
1.363637990132580491e+01,1.550302468353362251e+01,5.189770481281741610e+01,3.259927050364896672e+01,2.402606767656656928e+02
1.373496858058389058e+01,1.548575035536376632e+01,5.214014520247994966e+01,3.237410444215628758e+01,2.411054388418191934e+02
1.383353683290884284e+01,1.546796272129365235e+01,5.237974407902382978e+01,3.215229319968253208e+01,2.419414331134417182e+02
1.393208451883413623e+01,1.544968259882753614e+01,5.261655819045753191e+01,3.193375921071494616e+01,2.427688150907971192e+02
1.403061149907311567e+01,1.543093003024629262e+01,5.285064264696524106e+01,3.171842732278848231e+01,2.435877362725656496e+02
1.412911763452011371e+01,1.541172431469866666e+01,5.308205098232205899e+01,3.150622470297927435e+01,2.443983442817974208e+02
1.422760278625154307e+01,1.539208403878424569e+01,5.331083521251039770e+01,3.129708074870535839e+01,2.452007829962194592e+02
1.432606681552699257e+01,1.537202710570742070e+01,5.353704589168728489e+01,3.109092700260529440e+01,2.459951926731895071e+02
1.442450958379031789e+01,1.535157076307743473e+01,5.376073216564214619e+01,3.088769707128041730e+01,2.467817100695497174e+02
1.452293095267072864e+01,1.533073162942657142e+01,5.398194182287543441e+01,3.068732654769800305e+01,2.475604685566222258e+02
1.462133078398387909e+01,1.530952571951222296e+01,5.420072134342260739e+01,3.048975293706516609e+01,2.483315982305575176e+02
1.471970893973294281e+01,1.528796846846626245e+01,5.441711594553889597e+01,3.029491558599483625e+01,2.490952260182900773e+02
1.481806528210968033e+01,1.526607475485055687e+01,5.463116963035425044e+01,3.010275561479519624e+01,2.498514757792777630e+02
1.491639967349553331e+01,1.524385892267499720e+01,5.484292522460226849e+01,2.991321585272271832e+01,2.506004684032330374e+02
1.501471197646266909e+01,1.522133480243049242e+01,5.505242442151882898e+01,2.972624077605066617e+01,2.513423219040280117e+02
1.511300205377504824e+01,1.519851573118639010e+01,5.525970782000345594e+01,2.954177644881016462e+01,2.520771515099491751e+02
1.521126976838949929e+01,1.517541457179968845e+01,5.546481496212841478e+01,2.935977046607188257e+01,2.528050697504645825e+02
1.530951498345676676e+01,1.515204373127977888e+01,5.566778436907846839e+01,2.918017189964174918e+01,2.535261865396755070e+02
1.540773756232255565e+01,1.512841517835107652e+01,5.586865357559601364e+01,2.900293124605290274e+01,2.542406092565739186e+02
1.550593736852857951e+01,1.510454046025250285e+01,5.606745916300709354e+01,2.882800037674039828e+01,2.549484428222823453e+02
1.560411426581361738e+01,1.508043071881169084e+01,5.626423679089385388e+01,2.865533249029446239e+01,2.556497897743840895e+02
1.570226811811453338e+01,1.505609670582881066e+01,5.645902122748091045e+01,2.848488206669028244e+01,2.563447503384800825e+02
1.580039878956733723e+01,1.503154879780314346e+01,5.665184637879491447e+01,2.831660482340194207e+01,2.570334224971041408e+02
