# Well Angle,Fracture 1,Fracture 2,Fracture 3,Pressure Drop
1.003354252449484146e-01,3.355849498329394009e+01,3.307210473715929311e+01,3.336940027954675969e+01,4.723871623708786416e+01
2.006706966436306028e-01,3.295767453668013758e+01,3.305239731596235231e+01,3.398992814735751011e+01,4.728151476376834950e+01
3.010056603245632179e-01,3.236412735697305720e+01,3.301730789418004264e+01,3.461856474884689305e+01,4.730534314884709346e+01
4.013401625788883820e-01,3.177745916277237725e+01,3.296679541905172783e+01,3.525574541817588425e+01,4.731020607022401947e+01
5.006912612564722309e-01,3.120293736258765094e+01,3.290151955639123571e+01,3.589554308102111690e+01,4.729631410186902940e+01
6.005615116529761099e-01,3.063145660653112046e+01,3.282051773385906301e+01,3.654802565960980587e+01,4.726354410667095607e+01
7.004308497143204582e-01,3.006567513606421116e+01,3.272398831931182883e+01,3.721033654462397067e+01,4.721185154948310725e+01
8.002991237428552784e-01,2.950523471790283381e+01,3.261180664718638411e+01,3.788295863491078563e+01,4.714114358011163119e+01
9.001661820506275946e-01,2.894978281810247722e+01,3.248382622535050501e+01,3.856639095654701066e+01,4.705130244262184647e+01
1.000031872960765789e+00,2.839897185807853219e+01,3.233987827068182952e+01,3.926114987123963829e+01,4.694218509611772561e+01
1.100961253905949455e+00,2.784665094122757978e+01,3.217797550023141184e+01,3.997537355854100838e+01,4.681214592731365798e+01
1.200823736403118236e+00,2.730413569098745796e+01,3.200131826754664388e+01,4.069454604146590526e+01,4.666373286269215725e+01
1.300418102405262344e+00,2.676667006624953160e+01,3.180858260426774820e+01,4.142474732948272731e+01,4.649593056232009047e+01
1.400809364927726230e+00,2.622819721723892883e+01,3.159730764087672128e+01,4.217449514188433568e+01,4.630653343152489043e+01
1.500665914816155189e+00,2.569553700946859465e+01,3.136993645200308478e+01,4.293452653852833123e+01,4.609769336755220337e+01
1.600520185534808570e+00,2.516549135835393614e+01,3.112507619451498897e+01,4.370943244713106424e+01,4.586815152658408579e+01
1.700105757316529465e+00,2.463913178440455098e+01,3.086310617797022360e+01,4.449776203762522186e+01,4.561826601324985120e+01
1.800221283243522041e+00,2.411191043756502239e+01,3.058147829340850521e+01,4.530661126902648306e+01,4.534557725897257541e+01
1.899950655587020032e+00,2.358831992723270687e+01,3.028232377962154587e+01,4.612935629314574726e+01,4.505212961517159442e+01
1.999930083045492024e+00,2.306467743871532150e+01,2.996333235072157919e+01,4.697199021056309931e+01,4.473565527185552071e+01
2.099906465473766470e+00,2.254197041380535893e+01,2.962476654455652891e+01,4.783326304163812637e+01,4.439639580231608562e+01
2.199879650817317511e+00,2.201985241196446452e+01,2.926611839857016761e+01,4.871402918946537142e+01,4.403383867213848646e+01
2.299849487050810826e+00,2.149797214685716185e+01,2.888684247774297376e+01,4.961518537539987506e+01,4.364743182068503558e+01
2.399815822179489189e+00,2.097597259736831177e+01,2.848635376215370840e+01,5.053767364047797628e+01,4.323658164204924503e+01
2.499778504240557808e+00,2.045349007835844546e+01,2.806402534057851739e+01,5.148248458106302650e+01,4.280065078165824843e+01
2.599737381304565442e+00,1.993015326574885293e+01,2.761918589302053562e+01,5.245066084123061501e+01,4.233895573353965602e+01
2.699692301476790846e+00,1.940558217008911868e+01,2.715111694311559987e+01,5.344330088679528501e+01,4.185076422161300513e+01
2.799643112898621666e+00,1.887938705225758795e+01,2.665904985919151216e+01,5.446156308855090344e+01,4.133529234654506723e+01
2.899589663748938673e+00,1.835116727437757689e+01,2.614216258032312012e+01,5.550667014529929588e+01,4.079170147771130672e+01
2.999531802245492429e+00,1.782051007839120871e+01,2.559957604099437489e+01,5.657991388061440574e+01,4.021909486754239538e+01
3.099469376646286189e+00,1.728698928400799062e+01,2.503035026491255266e+01,5.768266045107944962e+01,3.961651396304780093e+01
3.199402235250955240e+00,1.675016389692695995e+01,2.443348009506275531e+01,5.881635600801028119e+01,3.898293438651911202e+01
3.299330226402140021e+00,1.620957661730942689e+01,2.380789052319853738e+01,5.998253285949203217e+01,3.831726155429791447e+01
3.399253198486867245e+00,1.566475223743694833e+01,2.315243157756627568e+01,6.118281618499676000e+01,3.761832589904034307e+01
3.499170999937923909e+00,1.511519591631678416e+01,2.246587272268737578e+01,6.241893136099585604e+01,3.688487765697312426e+01
3.599083479235231753e+00,1.456039131767205497e+01,2.174689671939082203e+01,6.369271196293713189e+01,3.611558117732562323e+01
3.698990484907222154e+00,1.399979859625715761e+01,2.099409288690008779e+01,6.500610851684275815e+01,3.530900870619704079e+01
3.798891865532205259e+00,1.343285221575449739e+01,2.020594970152187386e+01,6.636119808272363230e+01,3.446363359164722340e+01
3.898787469739746658e+00,1.285895857959984667e+01,1.938084665822801966e+01,6.776019476217213366e+01,3.357782285062729244e+01
3.998677146212032518e+00,1.227749345393014480e+01,1.851704531201880499e+01,6.920546123405105732e+01,3.264982903143692283e+01
4.098560743685243146e+00,1.168779915941325953e+01,1.761267940522625608e+01,7.069952143536049505e+01,3.167778129761358485e+01
4.198438110950915458e+00,1.108918150596343821e+01,1.666574397465708302e+01,7.224507451937948588e+01,3.065967565036181952e+01
4.298309096857314771e+00,1.048090644122938286e+01,1.567408331845128799e+01,7.384501024031933980e+01,2.959336419677146068e+01
4.398173550310795044e+00,9.862196380213292812e+00,1.463537768646353499e+01,7.550242593332316687e+01,2.847654335994563723e+01
4.498031320277168454e+00,9.232226179382729825e+00,1.354712853953758867e+01,7.722064528107968329e+01,2.730674091462421060e+01
4.597882255783063421e+00,8.590118714110769105e+00,1.240664220186816635e+01,7.900323908402107520e+01,2.608130171777539630e+01
4.697726205917286180e+00,7.934940013152383287e+00,1.121101170627830079e+01,8.085404828056933013e+01,2.479737198773462836e+01
4.797563019832182363e+00,7.265693898057898004e+00,9.957096604180257771e+00,8.277720949776184511e+01,2.345188196758713417e+01
4.897392546744996800e+00,6.581316068847768541e+00,8.641500479629188547e+00,8.477718345152304380e+01,2.204152678838529411e+01
4.997214635939223548e+00,5.880667569831347308e+00,7.260545869518509221e+00,8.685878656065014525e+01,2.056274532519222120e+01
5.097029136765969248e+00,5.162527561038246837e+00,5.810246248793041524e+00,8.902722619016870453e+01,1.901169681364759967e+01
5.196835898645304042e+00,4.425585311229206731e+00,4.286274689611142108e+00,9.128813999915965383e+01,1.738423496645566857e+01
5.296634771067609826e+00,3.668431317744214049e+00,2.683928745569605923e+00,9.364763993668618980e+01,1.567587929760941279e+01
5.396425603594937392e+00,3.980768381493383856e+00,3.462026322038944226e+00,9.255720529646768568e+01,1.651655466575677167e+01
5.496208245862351127e+00,4.637365706611493721e+00,5.033550376197830190e+00,9.032908391719067254e+01,1.821293347580863653e+01
5.595982547579276378e+00,5.252585702119240807e+00,6.533572591640646188e+00,8.821384170624010324e+01,1.983968541939788111e+01
5.695748358530851263e+00,5.829561391675674997e+00,7.967283730725887914e+00,8.620315487759843620e+01,2.140145288939672596e+01
5.795505528579258936e+00,6.371134374731419747e+00,9.339384536107624868e+00,8.428948108916095805e+01,2.290247545177953725e+01
5.895253907665082949e+00,6.879886794929366722e+00,1.065414107020963641e+01,8.246597213486100486e+01,2.434663129245600643e+01
5.994993345808638630e+00,7.358169324034800951e+00,1.191543290652503551e+01,8.072639776944016887e+01,2.573747386816967975e+01
6.094723693111312457e+00,7.808125708881847871e+00,1.312679519761235092e+01,7.906507909350580121e+01,2.707826436020697258e+01
6.194444799756905873e+00,8.231714348034016027e+00,1.429145548528654430e+01,7.747683016667944855e+01,2.837200045253770142e+01
6.294156516012963110e+00,8.630727296535729565e+00,1.541236598547244796e+01,7.595690671799182780e+01,2.962144188848844806e+01
6.393858692232106122e+00,9.006807039333978082e+00,1.649223196896580390e+01,7.450096099170021091e+01,3.082913320104138322e+01
6.493551178853365968e+00,9.361461325017552682e+00,1.753353676619325441e+01,7.310500190878920534e+01,3.199742396056174698e+01
6.593233826403512410e+00,9.696076310052802683e+00,1.853856384588636530e+01,7.176535984406082491e+01,3.312848683920457660e+01
6.692906485498384406e+00,1.001192822851057329e+01,1.950941635185416345e+01,7.047865541963525970e+01,3.422433375264167665e+01
6.792569006844207280e+00,1.031019377238298596e+01,2.044803442664909809e+01,6.924177180096791062e+01,3.528683030626978478e+01
6.892221241238922325e+00,1.059195934215045121e+01,2.135621060415384775e+01,6.805183005369569571e+01,3.631770874410030103e+01
6.991863039573508409e+00,1.085822930557646870e+01,2.223560351353930997e+01,6.690616718088422488e+01,3.731857957342810295e+01
7.091494252833295597e+00,1.110993338419678089e+01,2.308775010348095336e+01,6.580231651232224976e+01,3.829094201662972097e+01
7.191114732099286755e+00,1.134793327113939121e+01,2.391407656699821160e+01,6.473799016186239896e+01,3.923619342261982013e+01
7.290724328549469391e+00,1.157302857034709476e+01,2.471590812298437356e+01,6.371106330666852813e+01,4.015563775409685121e+01
7.390322893460136378e+00,1.178596213563437622e+01,2.549447778975804013e+01,6.271956007460759253e+01,4.105049325256906911e+01
7.489910278207176475e+00,1.198742487799989931e+01,2.625093426822945375e+01,6.176164085377065049e+01,4.192189937079017170e+01
7.589486334267411038e+00,1.217806010099431191e+01,2.698634903706928867e+01,6.083559086193639587e+01,4.277092305148616447e+01
7.689050913219872108e+00,1.235846741650049552e+01,2.770172274920606625e+01,5.993980983429344178e+01,4.359856442193905934e+01
7.788603866747125792e+00,1.252920628685158455e+01,2.839799100773712937e+01,5.907280270541128431e+01,4.440576196581641000e+01
7.888145046636561020e+00,1.269079923363991469e+01,2.907602958964056583e+01,5.823317117671950882e+01,4.519339722651113789e+01
7.987674304781701373e+00,1.284373474873438425e+01,2.973665917729685404e+01,5.741960607396875105e+01,4.596229909006394365e+01
8.087191493183485846e+00,1.298846993882294143e+01,3.038064965057133904e+01,5.663088041060573374e+01,4.671324769023767942e+01
8.186696463951571801e+00,1.312543293113725973e+01,3.100872398591441481e+01,5.586584308294831658e+01,4.744697797357427049e+01
8.286189069305631705e+00,1.325502506482523302e+01,3.162156180346396539e+01,5.512341313171081936e+01,4.816418295806109739e+01
8.385669161576629449e+00,1.337762288964857760e+01,3.221980259836846017e+01,5.440257451198296224e+01,4.886551671531921670e+01
8.485136593208121525e+00,1.349357999124293706e+01,3.280404868839276133e+01,5.370237132036430694e+01,4.955159710301715137e+01
8.584591216757525345e+00,1.360322866003779119e+01,3.337486790623452038e+01,5.302190343372766534e+01,5.022300827131576284e+01
8.684032884897414206e+00,1.370688141905553792e+01,3.393279606179822849e+01,5.236032251914623714e+01,5.088030296464197022e+01
8.783461450416796268e+00,1.380483242415777845e+01,3.447833919688360993e+01,5.171682837895860274e+01,5.152400463785790663e+01
8.882876766222377540e+00,1.389735874885028899e+01,3.501197565229532671e+01,5.109066559885439318e+01,5.215460940388873468e+01
8.982278685339849744e+00,1.398472156447610004e+01,3.553415796522229186e+01,5.048112047030161165e+01,5.277258782814830340e+01
9.081667060915158629e+00,1.406716722549101206e+01,3.604531461283647786e+01,4.988751816167251008e+01,5.337838658354340993e+01
9.181041746215761634e+00,1.414492826851235030e+01,3.654585161638117796e+01,4.930922011510646996e+01,5.397242997841695455e+01
9.280402594631913971e+00,1.421822433294339305e+01,3.703615401853774358e+01,4.874562164851886337e+01,5.455512136862842709e+01
9.379749459677913848e+00,1.428726301018550515e+01,3.751658724554332025e+01,4.819614974427117460e+01,5.512684446379814318e+01
9.479082194993370791e+00,1.435224062775018261e+01,3.798749836436974903e+01,4.766026100788006659e+01,5.568796453683033576e+01
9.578400654344461529e+00,1.441334297395781761e+01,3.844921724423954856e+01,4.713743978180263383e+01,5.623882954490933628e+01
9.677704691625187650e+00,1.447074596835529192e+01,3.890205763083334034e+01,4.662719640081137129e+01,5.677977116940191138e+01
9.776994160858622607e+00,1.452461628248743786e+01,3.934631814072535150e+01,4.612906557678721242e+01,5.731110578141210254e+01
9.876268916198162273e+00,1.457511191521493821e+01,3.978228318285317755e+01,4.564260490193188247e+01,5.783313533908092552e+01
9.975528811928775497e+00,1.462238272637404179e+01,4.021022381317516192e+01,4.516739346045078918e+01,5.834614822217853458e+01
1.007477370246824044e+01,1.466657093221888708e+01,4.063039852808660868e+01,4.470303053969450957e+01,5.885042000902424064e+01
1.017400344236839516e+01,1.470781156576892990e+01,4.104305400164209772e+01,4.424913443258897416e+01,5.934621420032886618e+01
1.027321788631636146e+01,1.474623290489767413e+01,4.144842577116531857e+01,4.380534132393701441e+01,5.983378289411804474e+01
1.037241688913579019e+01,1.478195687074181031e+01,4.184673887540723314e+01,4.337130425385094412e+01,6.031336741555597314e+01
1.047160030578808509e+01,1.481509939877958004e+01,4.223820844903467986e+01,4.294669215218574010e+01,6.078519890513405954e+01
1.057076799137364453e+01,1.484577078471727063e+01,4.262304027689391006e+01,4.253118893838882286e+01,6.124949886840416724e+01
1.066991980113306226e+01,1.487407600713679656e+01,4.300143131118676365e+01,4.212449268167644334e+01,6.170647969014283518e+01
1.076905559044837979e+01,1.490011502868536830e+01,4.337357015442144359e+01,4.172631481689318633e+01,6.215634511561931674e+01
1.086817521484427651e+01,1.492398307743721730e+01,4.373963751075199013e+01,4.133637941181079611e+01,6.259929070138588969e+01
1.096727852998931141e+01,1.494577090991674773e+01,4.409980660809317499e+01,4.095442248199007906e+01,6.303550423781600642e+01
1.106636539169711675e+01,1.496556505714762508e+01,4.445424359319877539e+01,4.058019134965359598e+01,6.346516614544763257e+01
1.116543565592761844e+01,1.498344805497868393e+01,4.480310790170041457e+01,4.021344404332089795e+01,6.388844984700475038e+01
1.126448917878823330e+01,1.499949865983309927e+01,4.514655260494379263e+01,3.985394873522310633e+01,6.430552211681923325e+01
1.136352581653508942e+01,1.501379205093413205e+01,4.548472473530284788e+01,3.950148321376301652e+01,6.471654340924290238e+01
1.146254542557419498e+01,1.502640001997539798e+01,4.581776559151678185e+01,3.915583438850781306e+01,6.512166816751279441e+01
1.156154786246267641e+01,1.503739114912472097e+01,4.614581102546975444e+01,3.881679782540551571e+01,6.552104511442695411e+01
1.166053298390993120e+01,1.504683097818172755e+01,4.646899171171827447e+01,3.848417731010000864e+01,6.591481752604964583e+01
1.175950064677884832e+01,1.505478216164236827e+01,4.678743340096837500e+01,3.815778443738926029e+01,6.630312348961909663e+01
1.185845070808697876e+01,1.506130461636711537e+01,4.710125715860917239e+01,3.783743822502371046e+01,6.668609614669070140e+01
1.195738302500772221e+01,1.506645566049334484e+01,4.741057958932539407e+01,3.752296475018126642e+01,6.706386392252443329e+01
1.205629745487150828e+01,1.507029014418526636e+01,4.771551304872815535e+01,3.721419680708658007e+01,6.743655074259316962e+01
1.215519385516697248e+01,1.507286057276800761e+01,4.801616584287592104e+01,3.691097358435606424e+01,6.780427623706773943e+01
1.225407208354212685e+01,1.507421722275255860e+01,4.831264241648975855e+01,3.661314036075768286e+01,6.816715593404708784e+01
1.235293199780553763e+01,1.507440825121959271e+01,4.860504353060491667e+01,3.632054821817548884e+01,6.852530144225978859e+01
1.245177345592747642e+01,1.507347979899602919e+01,4.889346643034789253e+01,3.603305377065608894e+01,6.887882062389260795e+01
1.255059631604109782e+01,1.507147608802562821e+01,4.917800500347744475e+01,3.575051890849693592e+01,6.922781775818624794e+01
1.264940043644359058e+01,1.506843951330734477e+01,4.945874993027786815e+01,3.547281055641479242e+01,6.957239369634504556e+01
1.274818567559733395e+01,1.506441072974576656e+01,4.973578882535549184e+01,3.519980044489874871e+01,6.991264600832646181e+01
1.284695189213105238e+01,1.505942873423582817e+01,5.000920637184479745e+01,3.493136489391938682e+01,7.024866912198505986e+01
1.294569894484095762e+01,1.505353094327908181e+01,5.027908444849825997e+01,3.466738460822266177e+01,7.058055445503867986e+01
1.304442669269190347e+01,1.504675326640981048e+01,5.054550225009732856e+01,3.440774448349285564e+01,7.090839054030163879e+01
1.314313499481850833e+01,1.503913017568754640e+01,5.080853640159580209e+01,3.415233342271665151e+01,7.123226314456724140e+01
1.324182371052632057e+01,1.503069477149779054e+01,5.106826106637153373e+01,3.390104416213067395e+01,7.155225538152852494e+01
1.334049269929292691e+01,1.502147884488251250e+01,5.132474804894501119e+01,3.365377310617247275e+01,7.186844781907709034e+01
1.343914182076909114e+01,1.501151293661083841e+01,5.157806689249113674e+01,3.341042017089802840e+01,7.218091858131437277e+01
1.353777093477988558e+01,1.500082639318295818e+01,5.182828497145274582e+01,3.317088863536428534e+01,7.248974344557657901e+01
1.363637990132580491e+01,1.498944741994860408e+01,5.207546757954416705e+01,3.293508500050722887e+01,7.279499593475340191e+01
1.373496858058389058e+01,1.497740313151017766e+01,5.231967801341029656e+01,3.270291885507953111e+01,7.309674740517628777e+01
1.383353683290884284e+01,1.496471959956772757e+01,5.256097765219289641e+01,3.247430274823937424e+01,7.339506713031919105e+01
1.393208451883413623e+01,1.495142189835405233e+01,5.279942603323769390e+01,3.224915206840824311e+01,7.369002238054333986e+01
1.403061149907311567e+01,1.493753414779802924e+01,5.303508092416004871e+01,3.202738492804192560e+01,7.398167849911538951e+01
1.412911763452011371e+01,1.492307955454514889e+01,5.326799839147491156e+01,3.180892205397994488e+01,7.427009897467959831e+01
1.422760278625154307e+01,1.490808045095647394e+01,5.349823286598154226e+01,3.159368668306198913e+01,7.455534551041566260e+01
1.432606681552699257e+01,1.489255833219956315e+01,5.372583720508284699e+01,3.138160446271758985e+01,7.483747809001583562e+01
1.442450958379031789e+01,1.487653389153714656e+01,5.395086275220722882e+01,3.117260335625562462e+01,7.511655504069138090e+01
1.452293095267072864e+01,1.486002705391302392e+01,5.417335939349070628e+01,3.096661355259626802e+01,7.539263309333168195e+01
1.462133078398387909e+01,1.484305700792925009e+01,5.439337561186673753e+01,3.076356738020401949e+01,7.566576744000433052e+01
1.471970893973294281e+01,1.482564223630139999e+01,5.461095853870276073e+01,3.056339922499583395e+01,7.593601178888786762e+01
1.481806528210968033e+01,1.480780054487462749e+01,5.482615400311408393e+01,3.036604545201129213e+01,7.620341841682264317e+01
1.491639967349553331e+01,1.478954909027777909e+01,5.503900657907655614e+01,3.017144433064567366e+01,7.646803821955312230e+01
1.501471197646266909e+01,1.477090440628792223e+01,5.524955963045411522e+01,2.997953596325796966e+01,7.672992075981963467e+01
1.511300205377504824e+01,1.475188242897385038e+01,5.545785535404900202e+01,2.979026221697714405e+01,7.698911431338187583e+01
1.521126976838949929e+01,1.473249852068241950e+01,5.566393482077621968e+01,2.960356665854136438e+01,7.724566591309026364e+01
1.530951498345676676e+01,1.471276749292864316e+01,5.586783801505826830e+01,2.941939449201309031e+01,7.749962139110131432e+01
1.540773756232255565e+01,1.469270362824559228e+01,5.606960387253088385e+01,2.923769249922352742e+01,7.775102541932629663e+01
1.550593736852857951e+01,1.467232070104878616e+01,5.626927031614356167e+01,2.905840898280766993e+01,7.799992154820203893e+01
1.560411426581361738e+01,1.465163199756437074e+01,5.646687429073681130e+01,2.888149371169881263e+01,7.824635224386861410e+01
1.570226811811453338e+01,1.463065033486947186e+01,5.666245179616969097e+01,2.870689786896084428e+01,7.849035892382264024e+01
1.580039878956733723e+01,1.460938807908932802e+01,5.685603791907067972e+01,2.853457400183998516e+01,7.873198199112849238e+01
