# Well Angle,Fracture 1,Fracture 2,Fracture 3,Pressure Drop
1.003354252449484146e-01,3.413481235038203465e+01,3.289604238031844829e+01,3.296914526929951705e+01,1.003247374345019409e+02
2.006706966436306028e-01,3.354495323969014464e+01,3.287885259650404635e+01,3.357619416380581612e+01,1.005116215244075164e+02
3.010056603245632179e-01,3.296252130967590688e+01,3.284658824596144910e+01,3.419089044436265112e+01,1.006625540637947012e+02
4.013401625788883820e-01,3.238713997481544737e+01,3.279921809547525413e+01,3.481364192970929139e+01,1.007776416242160451e+02
5.006912612564722309e-01,3.182398140618673565e+01,3.273737711809005901e+01,3.543864147572320888e+01,1.008563441002322207e+02
6.005615116529761099e-01,3.126412918825638343e+01,3.266016433419359544e+01,3.607570647755000692e+01,1.009001184254824324e+02
7.004308497143204582e-01,3.071020160015550005e+01,3.256777414709348761e+01,3.672202425275101945e+01,1.009084385165764957e+02
8.002991237428552784e-01,3.016186004845494750e+01,3.246009634586712878e+01,3.737804360567793793e+01,1.008812401187681047e+02
9.001661820506275946e-01,2.961877235173880862e+01,3.233700027857780412e+01,3.804422736968338370e+01,1.008184165381734516e+02
1.000031872960765789e+00,2.908061207094427303e+01,3.219833448204751392e+01,3.872105344700821661e+01,1.007198183507754266e+02
1.100961253905949455e+00,2.854139029096559455e+01,3.204219368391652267e+01,3.941641602511788278e+01,1.005836229394159460e+02
1.200823736403118236e+00,2.801216930241349701e+01,3.187167740834882679e+01,4.011615328923767265e+01,1.004124665486316275e+02
1.300418102405262344e+00,2.748831674137785441e+01,3.168552445328856138e+01,4.082615880533358421e+01,1.002054254137929945e+02
1.400809364927726230e+00,2.696394953811915940e+01,3.148137263422028553e+01,4.155467782766056217e+01,9.995966433883690172e+01
1.500665914816155189e+00,2.644572849072853060e+01,3.126159912404851227e+01,4.229267238522295713e+01,9.967792170369311577e+01
1.600520185534808570e+00,2.593055705680080791e+01,3.102487638512497270e+01,4.304456655807422294e+01,9.935857263051369159e+01
1.700105757316529465e+00,2.541949443644744733e+01,3.077159102495842902e+01,4.380891453859413076e+01,9.900215337797595794e+01
1.800221283243522041e+00,2.490814825513427522e+01,3.049930096676033031e+01,4.459255077810539092e+01,9.860513365754395920e+01
1.899950655587020032e+00,2.440089954609038969e+01,3.021009025045403007e+01,4.538901020345559090e+01,9.817049098080767067e+01
1.999930083045492024e+00,2.389420330341349086e+01,2.990175095153844609e+01,4.620404574504805595e+01,9.769490554346771205e+01
2.099906465473766470e+00,2.338904291323494178e+01,2.957456491874498283e+01,4.703639216802007184e+01,9.717875051684556809e+01
2.199879650817317511e+00,2.288511091024120958e+01,2.922807166697977621e+01,4.788681742277901066e+01,9.662128952337504018e+01
2.299849487050810826e+00,2.238209745011827323e+01,2.886177736006472827e+01,4.875612518981699850e+01,9.602172687701873599e+01
2.399815822179489189e+00,2.187968963938452305e+01,2.847515308046751770e+01,4.964515728014795570e+01,9.537920515652145070e+01
2.499778504240557808e+00,2.137757084550457876e+01,2.806763294690371424e+01,5.055479620759169990e+01,9.469280256577322064e+01
2.599737381304565442e+00,2.087541998418107170e+01,2.763861206773535173e+01,5.148596794808357657e+01,9.396153006814681419e+01
2.699692301476790846e+00,2.037291078056269100e+01,2.718744431682499396e+01,5.243964490261231504e+01,9.318432828041295579e+01
2.799643112898621666e+00,1.986971100092247511e+01,2.671343991710896049e+01,5.341684908196855019e+01,9.236006411058754395e+01
2.899589663748938673e+00,1.936548165115963371e+01,2.621586281561226173e+01,5.441865553322811877e+01,9.148752712260053954e+01
2.999531802245492429e+00,1.885987613824690001e+01,2.569392783192256502e+01,5.544619602983051720e+01,9.056542560932237507e+01
3.099469376646286189e+00,1.835253939049504268e+01,2.514679756025613955e+01,5.650066304924881422e+01,8.959238235374911596e+01
3.199402235250955240e+00,1.784310693222428412e+01,2.457357900315602706e+01,5.758331406461968527e+01,8.856693005663068163e+01
3.299330226402140021e+00,1.733120390812731415e+01,2.397331991254529271e+01,5.869547617932740025e+01,8.748750640693087632e+01
3.399253198486867245e+00,1.681644405226892758e+01,2.334500481128312188e+01,5.983855113644794699e+01,8.635244876971151484e+01
3.499170999937923909e+00,1.629842859630161556e+01,2.268755066551185706e+01,6.101402073818652383e+01,8.515998846398814237e+01
3.599083479235231753e+00,1.577674511107590405e+01,2.199980217490369228e+01,6.222345271402039657e+01,8.390824460109186589e+01
3.698990484907222154e+00,1.525096627539140925e+01,2.128052664437626618e+01,6.346850708023231391e+01,8.259521745183805308e+01
3.798891865532205259e+00,1.472064856516873910e+01,2.052840839691289432e+01,6.475094303791836126e+01,8.121878130864706691e+01
3.898787469739746658e+00,1.418533085582222597e+01,1.974204268273552998e+01,6.607262646144224050e+01,7.977667680637563308e+01
3.998677146212032518e+00,1.364453293007930590e+01,1.891992903519893687e+01,6.743553803472175900e+01,7.826650266338404549e+01
4.098560743685243146e+00,1.309775388292795029e+01,1.806046401833218340e+01,6.884178209873986987e+01,7.668570680200433287e+01
4.198438110950915458e+00,1.254447041477954272e+01,1.716193330489659985e+01,7.029359628032386809e+01,7.503157680536027385e+01
4.298309096857314771e+00,1.198413500331436055e+01,1.622250301707492781e+01,7.179336197961070809e+01,7.330122966542022311e+01
4.398173550310795044e+00,1.141617394384273254e+01,1.524021025439066612e+01,7.334361580176660311e+01,7.149160077523863777e+01
4.498031320277168454e+00,1.083998524736793989e+01,1.421295272508317709e+01,7.494706202754888125e+01,6.959943211693034470e+01
4.597882255783063421e+00,1.025493638489960802e+01,1.313847738785396047e+01,7.660658622724642441e+01,6.762125959587405077e+01
4.697726205917286180e+00,9.660361865950664040e+00,1.201436800054653453e+01,7.832527013350279788e+01,6.555339947139302126e+01
4.797563019832182363e+00,9.055560638583957100e+00,1.083803146083054791e+01,8.010640790058549499e+01,6.339193383492116851e+01
4.897392546744996800e+00,8.439793297889908175e+00,9.606682811222883700e+00,8.195352389088721168e+01,6.113269508864809865e+01
4.997214635939223548e+00,7.812279089415966382e+00,8.317328766684036978e+00,8.387039214389999131e+01,5.877124938144260113e+01
5.097029136765969248e+00,7.172192693887232018e+00,6.966749607477431994e+00,8.586105769863533510e+01,5.630287896490442279e+01
5.196835898645304042e+00,6.518660779630752522e+00,5.551479262870288700e+00,8.792985995749896233e+01,5.372256344130241246e+01
5.296634771067609826e+00,5.850758309532460011e+00,4.067783392506473916e+00,9.008145829796106341e+01,5.102495988799435622e+01
5.396425603594937392e+00,6.095223007787829772e+00,4.791294004269749607e+00,8.911348298794243306e+01,5.239704854077038476e+01
5.496208245862351127e+00,6.636089169945573296e+00,6.254438076340784747e+00,8.710947275371363219e+01,5.514987589044611127e+01
5.595982547579276378e+00,7.145041492387709248e+00,7.656241158031387606e+00,8.519871734958090315e+01,5.780925645223999965e+01
5.695748358530851263e+00,7.624244226071592578e+00,9.000753155399618066e+00,8.337500261852879646e+01,6.038024382616768548e+01
5.795505528579258936e+00,8.075686815149742515e+00,1.029168152249343571e+01,8.163263166235682888e+01,6.286755361819270860e+01
5.895253907665082949e+00,8.501199974325647446e+00,1.153242522746404575e+01,7.996637479821029615e+01,6.527558738020015028e+01
5.994993345808638630e+00,8.902470168548278551e+00,1.272610496425381221e+01,7.837142486719790213e+01,6.760845515873985789e+01
6.094723693111312457e+00,9.281052655420332087e+00,1.387559005378781940e+01,7.684335729079182897e+01,6.986999662385049703e+01
6.194444799756905873e+00,9.638383236529273645e+00,1.498352242492890696e+01,7.537809433854181407e+01,7.206380078740976103e+01
6.294156516012963110e+00,9.975788850246456008e+00,1.605233801794871695e+01,7.397187313180482704e+01,7.419322434683375889e+01
6.393858692232106122e+00,1.029449712563664576e+01,1.708428591137618824e+01,7.262121696298716245e+01,7.626140870760707458e+01
6.493551178853365968e+00,1.059564500511149632e+01,1.808144543625535761e+01,7.132290955863315673e+01,7.827129574928116540e+01
6.593233826403512410e+00,1.088028653241749666e+01,1.904574150953522604e+01,7.007397195804726664e+01,8.022564240604606312e+01
6.692906485498384406e+00,1.114939989246910379e+01,1.997895839001414231e+01,6.887164171751673791e+01,8.212703413586920931e+01
6.792569006844207280e+00,1.140389378040764612e+01,2.088275203549980219e+01,6.771335418409253748e+01,8.397789735273659062e+01
6.892221241238922325e+00,1.164461316902653820e+01,2.175866121819417032e+01,6.659672561277929503e+01,8.578051089524750239e+01
6.991863039573508409e+00,1.187234453630697928e+01,2.260811753638579802e+01,6.551953792730722625e+01,8.753701660238274940e+01
7.091494252833295597e+00,1.208782060817769555e+01,2.343245444398932875e+01,6.447972494783297748e+01,8.924942906407774501e+01
7.191114732099286755e+00,1.229172466569064248e+01,2.423291540500995822e+01,6.347535992929939397e+01,9.091964461055755464e+01
7.290724328549469391e+00,1.248469446052062715e+01,2.501066126736250439e+01,6.250464427211687024e+01,9.254944960045872904e+01
7.390322893460136378e+00,1.266732577798794246e+01,2.576677693940726499e+01,6.156589728260478722e+01,9.414052806379724814e+01
7.489910278207176475e+00,1.284017568261306508e+01,2.650227744287793996e+01,6.065754687450898075e+01,9.569446875183379575e+01
7.589486334267411038e+00,1.300376547748308198e+01,2.721811340738466356e+01,5.977812111513224380e+01,9.721277164205216081e+01
7.689050913219872108e+00,1.315858340539347360e+01,2.791517606423151676e+01,5.892624053037500431e+01,9.869685394275144574e+01
7.788603866747125792e+00,1.330508711678094791e+01,2.859430179075417300e+01,5.810061109246488087e+01,1.001480556381911526e+02
7.888145046636561020e+00,1.344370592683909393e+01,2.925627625064083404e+01,5.730001782252006848e+01,1.015676446120257879e+02
7.987674304781701373e+00,1.357484288187766097e+01,2.990183817065266680e+01,5.652331894746968288e+01,1.029568213835208894e+02
8.087191493183485846e+00,1.369887665290931444e+01,3.053168278971366689e+01,5.576944055737701689e+01,1.043167234883339773e+02
8.186696463951571801e+00,1.381616327260165100e+01,3.114646501242265941e+01,5.503737171497569136e+01,1.056484295328453129e+02
8.286189069305631705e+00,1.392703773008660484e+01,3.174680229558539679e+01,5.432615997432801436e+01,1.069529629486488886e+02
8.385669161576629449e+00,1.403181543665230890e+01,3.233327729330951428e+01,5.363490727003816971e+01,1.082312954715450388e+02
8.485136593208121525e+00,1.413079357403724856e+01,3.290644028350745742e+01,5.296276614245529402e+01,1.094843503672773579e+02
8.584591216757525345e+00,1.422425233587753546e+01,3.346681139626056734e+01,5.230893626786189543e+01,1.107130054243804693e+02
8.684032884897414206e+00,1.431245607181867463e+01,3.401488266238108338e+01,5.167266126580024377e+01,1.119180957327779851e+02
8.783461450416796268e+00,1.439565434287116474e+01,3.455111989862714950e+01,5.105322575850169642e+01,1.131004162651421012e+02
8.882876766222377540e+00,1.447408289575622753e+01,3.507596444435754535e+01,5.044995265988623601e+01,1.142607242766166991e+02
8.982278685339849744e+00,1.454796456324471698e+01,3.558983476292621617e+01,4.986220067382905796e+01,1.153997415371744211e+02
9.081667060915158629e+00,1.461751009682193470e+01,3.609312791979501611e+01,4.928936198338305275e+01,1.165181564096400137e+02
9.181041746215761634e+00,1.468291893741465159e+01,3.658622094816394110e+01,4.873086011442141086e+01,1.176166257853508341e+02
9.280402594631913971e+00,1.474437992937806285e+01,3.706947211186557922e+01,4.818614795875635082e+01,1.186957768883988393e+02
9.379749459677913848e+00,1.480207198245845390e+01,3.754322207433153125e+01,4.765470594321003261e+01,1.197562089584850753e+02
9.479082194993370791e+00,1.485616468601315177e+01,3.800779498159461411e+01,4.713604033239221991e+01,1.207984948215953125e+02
9.578400654344461529e+00,1.490681887937875238e+01,3.846349946654356700e+01,4.662968165407767884e+01,1.218231823569125822e+02
9.677704691625187650e+00,1.495418718192812513e+01,3.891062958096420488e+01,4.613518323710766822e+01,1.228307958677349063e+02
9.776994160858622607e+00,1.499841448603759986e+01,3.934946566130322054e+01,4.565211985265917605e+01,1.238218373634908858e+02
9.876268916198162273e+00,1.503963841590229222e+01,3.978027513354002309e+01,4.518008645055768113e+01,1.247967877593811465e+02
9.975528811928775497e+00,1.507798975487699167e+01,4.020331326206705569e+01,4.471869698305594909e+01,1.257561079996670657e+02
1.007477370246824044e+01,1.511359284378835355e+01,4.061882384703676507e+01,4.426758330917488138e+01,1.267002401101001254e+02
1.017400344236839516e+01,1.514656595245131854e+01,4.102703987423581822e+01,4.382639417331286324e+01,1.276296081846017358e+02
1.027321788631636146e+01,1.517702162643327313e+01,4.142818412119071070e+01,4.339479425237601617e+01,1.285446193108400905e+02
1.037241688913579019e+01,1.520506701093454005e+01,4.182246972288393749e+01,4.297246326618152779e+01,1.294456644390496365e+02
1.047160030578808509e+01,1.523080415349751604e+01,4.221010070016892257e+01,4.255909514633356849e+01,1.303331191980166182e+02
1.057076799137364453e+01,1.525433028711395167e+01,4.259127245370585513e+01,4.215439725918017899e+01,1.312073446619574781e+02
1.066991980113306226e+01,1.527573809517005543e+01,4.296617222600280428e+01,4.175808967882714740e+01,1.320686880716116320e+02
1.076905559044837979e+01,1.529511595955103864e+01,4.333497953392816271e+01,4.136990450652079687e+01,1.329174835127101630e+02
1.086817521484427651e+01,1.531254819312061421e+01,4.369786657386379858e+01,4.098958523301558188e+01,1.337540525546952495e+02
1.096727852998931141e+01,1.532811525769071714e+01,4.405499860148981384e+01,4.061688614081946724e+01,1.345787048523567080e+02
1.106636539169711675e+01,1.534189396851116882e+01,4.440653428802794878e+01,4.025157174346089306e+01,1.353917387128570340e+02
1.116543565592761844e+01,1.535395768622413470e+01,4.475262605462484800e+01,3.989341625915101730e+01,1.361934416304296462e+02
1.126448917878823330e+01,1.536437649715653464e+01,4.509342038641946715e+01,3.954220311642399821e+01,1.369840907908655936e+02
1.136352581653508942e+01,1.537321738275538507e+01,4.542905812771679308e+01,3.919772448952782185e+01,1.377639535477648849e+02
1.146254542557419498e+01,1.538054437890688320e+01,4.575967475957936159e+01,3.885978086151375521e+01,1.385332878723341139e+02
1.156154786246267641e+01,1.538641872582733328e+01,4.608540066104384891e+01,3.852818061312881071e+01,1.392923427784755575e+02
1.166053298390993120e+01,1.539089900915786657e+01,4.640636135507714499e+01,3.820273963576499199e+01,1.400413587246880240e+02
1.175950064677884832e+01,1.539404129284994127e+01,4.672267774030277110e+01,3.788328096684728052e+01,1.407805679942481447e+02
1.185845070808697876e+01,1.539589924438427815e+01,4.703446630944637263e+01,3.756963444616934567e+01,1.415101950550445622e+02
1.195738302500772221e+01,1.539652425282533521e+01,4.734183935538150934e+01,3.726163639179314657e+01,1.422304569002959624e+02
1.205629745487150828e+01,1.539596554017707852e+01,4.764490516558946354e+01,3.695912929423347038e+01,1.429415633713499574e+02
1.215519385516697248e+01,1.539427026647152452e+01,4.794376820578499832e+01,3.666196152774347183e+01,1.436437174636338057e+02
1.225407208354212685e+01,1.539148362899153355e+01,4.823852929340844042e+01,3.636998707760003668e+01,1.443371156167807783e+02
1.235293199780553763e+01,1.538764895599846483e+01,4.852928576163022711e+01,3.608306528237131516e+01,1.450219479898915154e+02
1.245177345592747642e+01,1.538280779531158515e+01,4.881613161446941263e+01,3.580106059021900933e+01,1.456983987227856119e+02
1.255059631604109782e+01,1.537699999805970918e+01,4.909915767358333483e+01,3.552384232835694888e+01,1.463666461841000910e+02
1.264940043644359058e+01,1.537026379790405173e+01,4.937845171724750770e+01,3.525128448484843346e+01,1.470268632069778789e+02
1.274818567559733395e+01,1.536263588601059027e+01,4.965409861200688368e+01,3.498326550198251539e+01,1.476792173130868662e+02
1.284695189213105238e+01,1.535415148203055935e+01,4.992618043744750622e+01,3.471966808052192732e+01,1.483238709256204118e+02
1.294569894484095762e+01,1.534484440133093130e+01,5.019477660450507273e+01,3.446037899416398176e+01,1.489609815719254016e+02
1.304442669269190347e+01,1.533474711869926921e+01,5.045996396769911740e+01,3.420528891360162049e+01,1.495907020763423532e+02
1.314313499481850833e+01,1.532389082873324782e+01,5.072181693165590843e+01,3.395429223961085796e+01,1.502131807437891382e+02
1.324182371052632057e+01,1.531230550311060945e+01,5.098040755225669329e+01,3.370728694463270614e+01,1.508285615346374584e+02
1.334049269929292691e+01,1.530001994492245565e+01,5.123580563272713562e+01,3.346417442235040340e+01,1.514369842313336960e+02
1.343914182076909114e+01,1.528706184024059311e+01,5.148807881496216510e+01,3.322485934479722403e+01,1.520385845972312211e+02
1.353777093477988558e+01,1.527345780707919332e+01,5.173729266636032520e+01,3.298924952656047083e+01,1.526334945280633519e+02
1.363637990132580491e+01,1.525923344189969910e+01,5.198351076242593649e+01,3.275725579567436796e+01,1.532218421964417701e+02
1.373496858058389058e+01,1.524441336379901735e+01,5.222679476537752663e+01,3.252879187082345425e+01,1.538037521897611271e+02
1.383353683290884284e+01,1.522902125651192051e+01,5.246720449898951699e+01,3.230377424449856960e+01,1.543793456418670473e+02
1.393208451883413623e+01,1.521307990835035007e+01,5.270479801987503521e+01,3.208212207177462005e+01,1.549487403588050540e+02
1.403061149907311567e+01,1.519661125019429093e+01,5.293963168540909692e+01,3.186375706439660860e+01,1.555120509389747383e+02
1.412911763452011371e+01,1.517963639164235978e+01,5.317176021847603806e+01,3.164860338988158972e+01,1.560693888879619067e+02
1.422760278625154307e+01,1.516217565542279111e+01,5.340123676921368912e+01,3.143658757536351800e+01,1.566208627283488113e+02
1.432606681552699257e+01,1.514424861015997514e+01,5.362811297391858290e+01,3.122763841592143663e+01,1.571665781047345263e+02
1.442450958379031789e+01,1.512587410158548451e+01,5.385243901126253263e+01,3.102168688715199352e+01,1.577066378842312133e+02
1.452293095267072864e+01,1.510707028227706061e+01,5.407426365596570150e+01,3.081866606175724499e+01,1.582411422526444085e+02
1.462133078398387909e+01,1.508785464000501264e+01,5.429363433005892858e+01,3.061851102993606233e+01,1.587701888065774654e+02
1.471970893973294281e+01,1.506824402475837310e+01,5.451059715186364940e+01,3.042115882337797572e+01,1.592938726416378188e+02
1.481806528210968033e+01,1.504825467452216259e+01,5.472519698280621014e+01,3.022654834267162016e+01,1.598122864369624949e+02
1.491639967349553331e+01,1.502790223987000573e+01,5.493747747218060340e+01,3.003462028794937666e+01,1.603255205362188462e+02
1.501471197646266909e+01,1.500720180743365439e+01,5.514748109996302361e+01,2.984531709260332377e+01,1.608336630252828172e+02
1.511300205377504824e+01,1.498616792230839323e+01,5.535524921777839324e+01,2.965858285991321708e+01,1.613367998067164422e+02
1.521126976838949929e+01,1.496481460944797348e+01,5.556082208811251633e+01,2.947436330243951730e+01,1.618350146712406001e+02
1.530951498345676676e+01,1.494315539410095361e+01,5.576423892185663789e+01,2.929260568404241738e+01,1.623283893663135586e+02
1.540773756232255565e+01,1.492120332133702298e+01,5.596553791426907765e+01,2.911325876439390825e+01,1.628170036619709435e+02
1.550593736852857951e+01,1.489897097470935527e+01,5.616475627943084703e+01,2.893627274585979947e+01,1.633009354140444884e+02
1.560411426581361738e+01,1.487647049409570954e+01,5.636193028326944443e+01,2.876159922263484958e+01,1.637802606249003361e+02
1.570226811811453338e+01,1.485371359275925940e+01,5.655709527522166979e+01,2.858919113201906015e+01,1.642550535017766435e+02
1.580039878956733723e+01,1.483071157366842030e+01,5.675028571859927951e+01,2.841900270773229309e+01,1.647253865128811015e+02
